energy[eV] flux[erg/cm^2/s]
2.07863e-5	1.64156e-15
2.21106e-5	1.94935e-15
2.32047e-5	2.24283e-15
2.43529e-5	2.58246e-15
2.55579e-5	2.97352e-15
2.68226e-5	3.43158e-15
2.81498e-5	3.95421e-15
2.95427e-5	4.54333e-15
3.10046e-5	5.23846e-15
3.25387e-5	6.03628e-15
3.41488e-5	6.93981e-15
3.58386e-5	8.00281e-15
3.76120e-5	9.20767e-15
3.94731e-5	1.05779e-14
4.14263e-5	1.22259e-14
4.34762e-5	1.40204e-14
4.56274e-5	1.61721e-14
4.78852e-5	1.86351e-14
5.02547e-5	2.14407e-14
5.27414e-5	2.47061e-14
5.53511e-5	2.85337e-14
5.80900e-5	3.27799e-14
6.09644e-5	3.77150e-14
6.39811e-5	4.35910e-14
6.71470e-5	5.01158e-14
7.04696e-5	5.78361e-14
7.39566e-5	6.64428e-14
7.76161e-5	7.65621e-14
8.14567e-5	8.81557e-14
8.54874e-5	1.01890e-13
8.97175e-5	1.17497e-13
9.41569e-5	1.35392e-13
9.88160e-5	1.57080e-13
1.03706e-4	1.81829e-13
1.08837e-4	2.10541e-13
1.13144e-4	2.45333e-13
1.19153e-4	2.87732e-13
1.31943e-4	3.32172e-13
1.44546e-4	3.95778e-13
1.62223e-4	4.67450e-13
1.74412e-4	5.40325e-13
1.92667e-4	6.29418e-13
2.07143e-4	7.25829e-13
2.28200e-4	8.45588e-13
2.43260e-4	9.79631e-13
2.69733e-4	1.15081e-12
2.97631e-4	1.35855e-12
3.15893e-4	1.58467e-12
3.51800e-4	1.84690e-12
3.86232e-4	2.17945e-12
4.17261e-4	2.53779e-12
4.51056e-4	2.91721e-12
4.89357e-4	3.38452e-12
5.28246e-4	3.86532e-12
5.58865e-4	4.49055e-12
6.23019e-4	5.27346e-12
7.02973e-4	6.13679e-12
7.92125e-4	7.01270e-12
8.86184e-4	8.09802e-12
1.00984e-3	9.43365e-12
1.13943e-3	1.08326e-11
1.28566e-3	1.25450e-11
1.45066e-3	1.44841e-11
1.63683e-3	1.66118e-11
1.82472e-3	1.89434e-11
2.10075e-3	2.17977e-11
2.29524e-3	2.50301e-11
2.58979e-3	2.89517e-11
2.92215e-3	3.34066e-11
3.29716e-3	3.85237e-11
3.72030e-3	4.45864e-11
4.19774e-3	5.14783e-11
4.73646e-3	5.95438e-11
5.34430e-3	6.90820e-11
6.09003e-3	8.05602e-11
6.88668e-3	9.35653e-11
8.55851e-3	1.08079e-10
1.05085e-2	1.23880e-10
1.27480e-2	1.41240e-10
1.54647e-2	1.60667e-10
1.87604e-2	1.82905e-10
2.27585e-2	2.08221e-10
2.86269e-2	2.38548e-10
3.73368e-2	2.56839e-10
4.86968e-2	2.72747e-10
6.35130e-2	2.87254e-10
8.28372e-2	2.88047e-10
1.08041e-1	2.85517e-10
1.40913e-1	2.65916e-10
1.81581e-1	2.31500e-10
2.28403e-1	2.01849e-10
2.83850e-1	1.77353e-10
3.57043e-1	1.55515e-10
4.54565e-1	1.34694e-10
5.71779e-1	1.17498e-10
7.10584e-1	1.03099e-10
8.83087e-1	9.04654e-11
1.09747e+0	7.95939e-11
1.36389e+0	6.99816e-11
1.69499e+0	6.12819e-11
2.10647e+0	5.39174e-11
2.61783e+0	4.72148e-11
3.25334e+0	4.14290e-11
4.04313e+0	3.64258e-11
5.02465e+0	3.19405e-11
6.24444e+0	2.79887e-11
7.76034e+0	2.45589e-11
9.64426e+0	2.16659e-11
1.22785e+1	1.89598e-11
1.58221e+1	1.66622e-11
2.01437e+1	1.45899e-11
2.59572e+1	1.27972e-11
3.38548e+1	1.16908e-11
4.41553e+1	1.11802e-11
5.75898e+1	1.07570e-11
7.51119e+1	1.13479e-11
9.79651e+1	1.22720e-11
1.27772e+2	1.32130e-11
1.62671e+2	1.45781e-11
2.01187e+2	1.66926e-11
2.41504e+2	1.91911e-11
2.80925e+2	2.19636e-11
3.31659e+2	2.50605e-11
4.02339e+2	2.87679e-11
4.85143e+2	3.32500e-11
5.57408e+2	3.79177e-11
6.79836e+2	4.35178e-11
8.05579e+2	5.00697e-11
9.71374e+2	5.77147e-11
1.16894e+3	6.61973e-11
1.37866e+3	7.59632e-11
1.63256e+3	8.80172e-11
1.93322e+3	1.02028e-10
2.28925e+3	1.18116e-10
2.64618e+3	1.33880e-10
3.09591e+3	1.57608e-10
3.63218e+3	1.76967e-10
4.18119e+3	2.03487e-10
5.26640e+3	2.35542e-10
6.62438e+3	2.67000e-10
8.23252e+3	3.05248e-10
1.03553e+4	3.48159e-10
1.28692e+4	3.93586e-10
1.61876e+4	4.50551e-10
2.08594e+4	5.11070e-10
2.72061e+4	5.42425e-10
3.54837e+4	5.69390e-10
4.62798e+4	5.98686e-10
6.03607e+4	6.30183e-10
7.87257e+4	6.62241e-10
1.02679e+5	6.61147e-10
1.33919e+5	6.40693e-10
1.74665e+5	6.20530e-10
2.27808e+5	6.01664e-10
2.97119e+5	5.84015e-10
3.87520e+5	5.65012e-10
5.05425e+5	5.28258e-10
6.59203e+5	4.89018e-10
8.59770e+5	4.52194e-10
1.10790e+6	4.13333e-10
1.49829e+6	3.92670e-10
1.95415e+6	3.58922e-10
2.54871e+6	3.29161e-10
3.32417e+6	3.04206e-10
4.33557e+6	2.78828e-10
5.65470e+6	2.55286e-10
7.37517e+6	2.33216e-10
9.61911e+6	2.13054e-10
1.25458e+7	1.95281e-10
1.61665e+7	1.75037e-10
2.05822e+7	1.53640e-10
2.62040e+7	1.34694e-10
3.33613e+7	1.18444e-10
4.19637e+7	1.04498e-10
5.09066e+7	8.80121e-11
5.89730e+7	7.49883e-11
6.80181e+7	6.50038e-11
7.86230e+7	5.62272e-11
9.10811e+7	4.86714e-11
1.05051e+8	4.21967e-11
1.22563e+8	3.64314e-11
1.48738e+8	3.15746e-11
1.84845e+8	2.68218e-11
2.25459e+8	2.29857e-11
2.72683e+8	2.00538e-11
3.32797e+8	1.70507e-11
4.21146e+8	1.43878e-11
5.10897e+8	1.23412e-11
6.21504e+8	1.04158e-11
7.63288e+8	9.19221e-12
9.57214e+8	8.13606e-12
1.21867e+9	7.05536e-12
1.53291e+9	6.24946e-12
1.95160e+9	5.60626e-12
2.54539e+9	5.29969e-12
3.31984e+9	5.04036e-12
4.32992e+9	4.77262e-12
5.64732e+9	4.45234e-12
7.36555e+9	4.12615e-12
9.60656e+9	3.83020e-12
1.25294e+10	3.54764e-12
1.63416e+10	3.14935e-12
2.10578e+10	2.76435e-12
2.68095e+10	2.44118e-12
3.45467e+10	2.13627e-12
4.45170e+10	1.86378e-12
5.66763e+10	1.64190e-12
7.21567e+10	1.44820e-12
9.29813e+10	1.26808e-12
1.16957e+11	1.11983e-12
1.43606e+11	9.77652e-13
1.78467e+11	8.46365e-13
2.19131e+11	7.40277e-13
2.65830e+11	6.52743e-13
3.22480e+11	5.75124e-13
3.95956e+11	5.02738e-13
4.92079e+11	4.34055e-13
5.96946e+11	3.64887e-13
6.94197e+11	3.15589e-13
8.19072e+11	2.77234e-13
9.53305e+11	2.41601e-13
1.10623e+12	2.12737e-13
1.28086e+12	1.86055e-13
1.51253e+12	1.61584e-13
1.78611e+12	1.40369e-13
2.07035e+12	1.23463e-13
2.45587e+12	1.10001e-13
2.79987e+12	9.48002e-14
3.30219e+12	8.24458e-14
3.78644e+12	7.55817e-14
